LabVIEW Measurement	
Writer_Version	2
Reader_Version	2
Separator	Tab
Decimal_Separator	.
Multi_Headings	Yes
X_Columns	One
Time_Pref	Absolute
Operator	StruthersA
Date	2019/04/25
Time	16:31:44.4849416500583890151
***End_of_Header***	
	
Channels	1	
Samples	450	
Date	2019/04/25	
Time	16:31:44.4849416500583890151	
Y_Unit_Label	Volts	
X_Dimension	Time	
X0	0.0000000000000000E+0	
Delta_X	0.100000	
***End_of_Header***		
X_Value	Voltage (Collected)	Comment
0.000000	74.579809
0.100000	74.579809
0.200000	74.567658
0.300000	74.549432
0.400000	74.549432
0.500000	74.525133
0.600000	74.525133
0.700000	74.512985
0.800000	74.500836
0.900000	74.476541
1.000000	74.464394
1.100000	74.464394
1.200000	74.452248
1.300000	74.452248
1.400000	74.434030
1.500000	74.427957
1.600000	74.434030
1.700000	74.403668
1.800000	74.397596
1.900000	74.379380
2.000000	74.373309
2.100000	74.355095
2.200000	74.342953
2.300000	74.312600
2.400000	74.318670
2.500000	74.300460
2.600000	74.294390
2.700000	74.294390
2.800000	74.294390
2.900000	74.300460
3.000000	74.288320
3.100000	74.264042
3.200000	74.264042
3.300000	74.239766
3.400000	74.251903
3.500000	74.233697
3.600000	74.233697
3.700000	74.245834
3.800000	74.221560
3.900000	74.221560
4.000000	74.203355
4.100000	74.203355
4.200000	74.215491
4.300000	74.209423
4.400000	74.179083
4.500000	74.166948
4.600000	74.173016
4.700000	74.160881
4.800000	74.148746
4.900000	74.148746
5.000000	74.142679
5.100000	74.148746
5.200000	74.124479
5.300000	74.136613
5.400000	74.142679
5.500000	74.136613
5.600000	74.112346
5.700000	74.118413
5.800000	74.118413
5.900000	74.100214
6.000000	74.069885
6.100000	74.094148
6.200000	74.075950
6.300000	74.075950
6.400000	74.069885
6.500000	74.082016
6.600000	74.063819
6.700000	74.051689
6.800000	74.057754
6.900000	74.057754
7.000000	74.069885
7.100000	74.033494
7.200000	74.027429
7.300000	74.033494
7.400000	74.033494
7.500000	74.033494
7.600000	74.021364
7.700000	74.021364
7.800000	74.003171
7.900000	74.027429
8.000000	74.015300
8.100000	73.997107
8.200000	73.997107
8.300000	73.991043
8.400000	73.997107
8.500000	74.003171
8.600000	73.972852
8.700000	73.984979
8.800000	73.984979
8.900000	73.997107
9.000000	73.978915
9.100000	73.972852
9.200000	73.954661
9.300000	73.984979
9.400000	73.984979
9.500000	73.972852
9.600000	73.984979
9.700000	73.991043
9.800000	73.966788
9.900000	73.960725
10.000000	73.966788
10.100000	73.966788
10.200000	73.966788
10.300000	73.954661
10.400000	73.966788
10.500000	73.948598
10.600000	73.972852
10.700000	73.966788
10.800000	73.984979
10.900000	73.954661
11.000000	73.948598
11.100000	73.954661
11.200000	73.924346
11.300000	73.960725
11.400000	73.948598
11.500000	73.954661
11.600000	73.954661
11.700000	73.954661
11.800000	73.942535
11.900000	73.954661
12.000000	73.942535
12.100000	73.930409
12.200000	73.936472
12.300000	73.936472
12.400000	73.924346
12.500000	73.930409
12.600000	73.930409
12.700000	73.912221
12.800000	73.912221
12.900000	73.906159
13.000000	73.930409
13.100000	73.900096
13.200000	73.906159
13.300000	73.875848
13.400000	73.894034
13.500000	73.887972
13.600000	73.894034
13.700000	73.869787
13.800000	73.887972
13.900000	73.869787
14.000000	73.887972
14.100000	73.863725
14.200000	73.851602
14.300000	73.869787
14.400000	73.839480
14.500000	73.857663
14.600000	73.863725
14.700000	73.851602
14.800000	73.827358
14.900000	73.881910
15.000000	73.845541
15.100000	73.839480
15.200000	73.857663
15.300000	73.845541
15.400000	73.845541
15.500000	73.833419
15.600000	73.827358
15.700000	73.833419
15.800000	73.833419
15.900000	73.803115
16.000000	73.833419
16.100000	73.839480
16.200000	73.827358
16.300000	73.809176
16.400000	73.815236
16.500000	73.863725
16.600000	74.021364
16.700000	74.506910
16.800000	75.175814
16.900000	76.035502
17.000000	76.744783
17.100000	77.351632
17.200000	78.163037
17.300000	78.643773
17.400000	79.249166
17.500000	79.670172
17.600000	80.185118
17.700000	80.632799
17.800000	80.913072
17.900000	81.224922
18.000000	81.555992
18.100000	81.850026
18.200000	82.307564
18.300000	82.483335
18.400000	82.791311
18.500000	83.068274
18.600000	83.295175
18.700000	83.452902
18.800000	83.743463
18.900000	83.914218
19.000000	84.034473
19.100000	84.395703
19.200000	84.395703
19.300000	84.554360
19.400000	84.833933
19.500000	84.865730
19.600000	85.018433
19.700000	85.266853
19.800000	85.298727
19.900000	85.330606
20.000000	85.528386
20.100000	85.547538
20.200000	85.803094
20.300000	85.892627
20.400000	85.975805
20.500000	86.039816
20.600000	86.103851
20.700000	86.219172
20.800000	86.360226
20.900000	86.308920
21.000000	86.405131
21.100000	86.443630
21.200000	86.610561
21.300000	86.642682
21.400000	86.681235
21.500000	86.848399
21.600000	86.803377
21.700000	86.848399
21.800000	87.099457
21.900000	87.080132
22.000000	87.086573
22.100000	87.093015
22.200000	87.228351
22.300000	87.228351
22.400000	87.125228
22.500000	87.151003
22.600000	87.325087
22.700000	87.286386
22.800000	87.479981
22.900000	87.486438
23.000000	87.460611
23.100000	87.473524
23.200000	87.596247
23.300000	87.557483
23.400000	87.635021
23.500000	87.609171
23.600000	87.602709
23.700000	87.609171
23.800000	87.609171
23.900000	87.602709
24.000000	87.680268
24.100000	87.790206
24.200000	87.816085
24.300000	87.880800
24.400000	87.848439
24.500000	87.867855
24.600000	87.893745
24.700000	87.926115
24.800000	87.770800
24.900000	87.660875
25.000000	87.576864
25.100000	87.415424
25.200000	87.189672
25.300000	86.970663
25.400000	86.758367
25.500000	86.539916
25.600000	86.334571
25.700000	86.161502
25.800000	85.975805
25.900000	85.771129
26.000000	85.592233
26.100000	85.400761
26.200000	85.234985
26.300000	85.075730
26.400000	84.903894
26.500000	84.744932
26.600000	84.579758
26.700000	84.446458
26.800000	84.287894
26.900000	84.167475
27.000000	83.996489
27.100000	83.850958
27.200000	83.711859
27.300000	83.598127
27.400000	83.459214
27.500000	83.326710
27.600000	83.200600
27.700000	83.080872
27.800000	82.929743
27.900000	82.816473
28.000000	82.703269
28.100000	82.558713
28.200000	82.451936
28.300000	82.313839
28.400000	82.207193
28.500000	82.088067
28.600000	82.006601
28.700000	81.887593
28.800000	81.737367
28.900000	81.643532
29.000000	81.537238
29.100000	81.412255
29.200000	81.312323
29.300000	81.181236
29.400000	81.100127
29.500000	81.006579
29.600000	80.894376
29.700000	80.819607
29.800000	80.713729
29.900000	80.651472
30.000000	80.533234
30.100000	80.452372
30.200000	80.359107
30.300000	80.265881
30.400000	80.178907
30.500000	80.067133
30.600000	79.986443
30.700000	79.880969
30.800000	79.787946
30.900000	79.694961
31.000000	79.614405
31.100000	79.527685
31.200000	79.447189
31.300000	79.372910
31.400000	79.298656
31.500000	79.230610
31.600000	79.162585
31.700000	79.088398
31.800000	79.026594
31.900000	78.940096
32.000000	78.909211
32.100000	78.847455
32.200000	78.748678
32.300000	78.723991
32.400000	78.662283
32.500000	78.600591
32.600000	78.532748
32.700000	78.483421
32.800000	78.427939
32.900000	78.372470
33.000000	78.329337
33.100000	78.280051
33.200000	78.230775
33.300000	78.181509
33.400000	78.113785
33.500000	78.052233
33.600000	78.009157
33.700000	77.947632
33.800000	77.916875
33.900000	77.861523
34.000000	77.787739
34.100000	77.744709
34.200000	77.701686
34.300000	77.658671
34.400000	77.615663
34.500000	77.572662
34.600000	77.517386
34.700000	77.468263
34.800000	77.419148
34.900000	77.376181
35.000000	77.327085
35.100000	77.277998
35.200000	77.241189
35.300000	77.210519
35.400000	77.161455
35.500000	77.130794
35.600000	77.087876
35.700000	77.044964
35.800000	77.002060
35.900000	76.946908
36.000000	76.934653
36.100000	76.885641
36.200000	76.855013
36.300000	76.830514
36.400000	76.812140
36.500000	76.757028
36.600000	76.726416
36.700000	76.695806
36.800000	76.652959
36.900000	76.640719
37.000000	76.616239
37.100000	76.561168
37.200000	76.518343
37.300000	76.512225
37.400000	76.469408
37.500000	76.444944
37.600000	76.426597
37.700000	76.371565
37.800000	76.334884
37.900000	76.316545
38.000000	76.292095
38.100000	76.237090
38.200000	76.200427
38.300000	76.151550
38.400000	76.121006
38.500000	76.090466
38.600000	76.059929
38.700000	76.023289
38.800000	75.998866
38.900000	75.992760
39.000000	75.937816
39.100000	75.907296
39.200000	75.901193
39.300000	75.852369
39.400000	75.815757
39.500000	75.815757
39.600000	75.791351
39.700000	75.773049
39.800000	75.742547
39.900000	75.699850
40.000000	75.687652
40.100000	75.675455
40.200000	75.651062
40.300000	75.602282
40.400000	75.608379
40.500000	75.553510
40.600000	75.523032
40.700000	75.510842
40.800000	75.486463
40.900000	75.462086
41.000000	75.462086
41.100000	75.449899
41.200000	75.431618
41.300000	75.407246
41.400000	75.395061
41.500000	75.382876
41.600000	75.340234
41.700000	75.328051
41.800000	75.340234
41.900000	75.328051
42.000000	75.303688
42.100000	75.285417
42.200000	75.267147
42.300000	75.261057
42.400000	75.236699
42.500000	75.212344
42.600000	75.212344
42.700000	75.169727
42.800000	75.169727
42.900000	75.145377
43.000000	75.114942
43.100000	75.102769
43.200000	75.072339
43.300000	75.060168
43.400000	75.023657
43.500000	75.005404
43.600000	74.999320
43.700000	74.974984
43.800000	74.950650
43.900000	74.956734
44.000000	74.956734
44.100000	74.920236
44.200000	74.914154
44.300000	74.914154
44.400000	74.895907
44.500000	74.889825
44.600000	74.847255
44.700000	74.841174
44.800000	74.816851
44.900000	74.822931

